No_of_Transactions,Time(S)
1,3.072890927
2,6.148936420
4,12.284857789
6,18.436897348
8,24.592716412
10,30.726341942
14,43.018528186
18,55.317742528
22,67.618224988
26,80.001131530
32,98.385853589
42,129.132429159
52,159.742581844
